Frequency (Hz)	Level (dB)
10.766602	-23.237123
21.533203	-27.880123
32.299805	-30.486273
43.066406	-32.003864
53.833008	-33.168922
64.599609	-34.169426
75.366211	-35.042633
86.132812	-35.737286
96.899414	-36.351700
107.666016	-36.819500
118.432617	-37.212643
129.199219	-37.582333
139.965820	-37.901958
150.732422	-38.297012
161.499023	-38.697922
172.265625	-39.020798
183.032227	-39.086098
193.798828	-39.331909
204.565430	-39.681393
215.332031	-39.905895
226.098633	-40.203472
236.865234	-40.420643
247.631836	-40.652985
258.398438	-41.005962
269.165039	-41.276100
279.931641	-41.605465
290.698242	-41.691525
301.464844	-41.740814
312.231445	-41.958900
322.998047	-42.237003
333.764648	-42.379032
344.531250	-42.323002
355.297852	-42.548225
366.064453	-42.696640
376.831055	-42.993504
387.597656	-43.014576
398.364258	-43.020027
409.130859	-43.210243
419.897461	-43.329056
430.664062	-43.482662
441.430664	-43.546261
452.197266	-43.690880
462.963867	-43.692284
473.730469	-43.988937
484.497070	-44.276398
495.263672	-44.325813
506.030273	-44.372967
516.796875	-44.447128
527.563477	-44.606579
538.330078	-44.612442
549.096680	-44.726662
559.863281	-44.803318
570.629883	-44.926498
581.396484	-45.154377
592.163086	-45.175831
602.929688	-45.255863
613.696289	-45.433502
624.462891	-45.442589
635.229492	-45.529465
645.996094	-45.584484
656.762695	-45.582073
667.529297	-45.740959
678.295898	-45.671032
689.062500	-45.766232
699.829102	-46.066841
710.595703	-46.221127
721.362305	-45.844177
732.128906	-45.770229
742.895508	-44.843246
753.662109	-44.982094
764.428711	-43.959984
775.195312	-44.736340
785.961914	-44.916306
796.728516	-46.595142
807.495117	-46.857906
818.261719	-46.944481
829.028320	-46.940350
839.794922	-46.944153
850.561523	-47.068264
861.328125	-46.850037
872.094727	-45.473320
882.861328	-46.616745
893.627930	-47.078674
904.394531	-47.215038
915.161133	-47.205151
925.927734	-46.366653
936.694336	-45.382099
947.460938	-43.751564
958.227539	-46.549496
968.994141	-47.222347
979.760742	-46.749748
990.527344	-46.787827
1001.293945	-44.127224
1012.060547	-35.514610
1022.827148	-34.343723
1033.593750	-40.138630
1044.360352	-43.802952
1055.126953	-48.141071
1065.893555	-47.646706
1076.660156	-47.075363
1087.426758	-45.437298
1098.193359	-45.920906
1108.959961	-46.914547
1119.726562	-47.679577
1130.493164	-47.536903
1141.259766	-48.335754
1152.026367	-48.544781
1162.792969	-48.017017
1173.559570	-48.524170
1184.326172	-48.530685
1195.092773	-44.077518
1205.859375	-44.251259
1216.625977	-48.066078
1227.392578	-47.626381
1238.159180	-46.350040
1248.925781	-48.069798
1259.692383	-48.519100
1270.458984	-49.214268
1281.225586	-48.746021
1291.992188	-47.861156
1302.758789	-48.912323
1313.525391	-49.274940
1324.291992	-49.243103
1335.058594	-49.127548
1345.825195	-48.329708
1356.591797	-48.514259
1367.358398	-48.250416
1378.125000	-49.193989
1388.891602	-48.891689
1399.658203	-47.797440
1410.424805	-47.235649
1421.191406	-46.076809
1431.958008	-48.796520
1442.724609	-49.311890
1453.491211	-49.290096
1464.257812	-49.072536
1475.024414	-48.166317
1485.791016	-49.528484
1496.557617	-49.865818
1507.324219	-49.546074
1518.090820	-49.690746
1528.857422	-49.284294
1539.624023	-49.753174
1550.390625	-49.783733
1561.157227	-49.242664
1571.923828	-49.577934
1582.690430	-49.850323
1593.457031	-47.814789
1604.223633	-46.763355
1614.990234	-48.694901
1625.756836	-49.589886
1636.523438	-50.633091
1647.290039	-49.636375
1658.056641	-48.522488
1668.823242	-46.720932
1679.589844	-45.882660
1690.356445	-42.666508
1701.123047	-43.152275
1711.889648	-41.668140
1722.656250	-45.354343
1733.422852	-46.355106
1744.189453	-45.341709
1754.956055	-45.690346
1765.722656	-44.039330
1776.489258	-46.319950
1787.255859	-45.316769
1798.022461	-39.488884
1808.789062	-42.177929
1819.555664	-50.110703
1830.322266	-47.731182
1841.088867	-46.087852
1851.855469	-42.929356
1862.622070	-41.882206
1873.388672	-38.031330
1884.155273	-36.108353
1894.921875	-34.042057
1905.688477	-34.989182
1916.455078	-35.904339
1927.221680	-35.761791
1937.988281	-39.954346
1948.754883	-42.798210
1959.521484	-47.995129
1970.288086	-49.033421
1981.054688	-46.209587
1991.821289	-48.235672
2002.587891	-49.359325
2013.354492	-50.733414
2024.121094	-49.115891
2034.887695	-43.154964
2045.654297	-42.013783
2056.420898	-38.696503
2067.187500	-40.990856
2077.954102	-40.770607
2088.720703	-40.001526
2099.487305	-42.124535
2110.253906	-44.291504
2121.020508	-48.392498
2131.787109	-49.899406
2142.553711	-46.009182
2153.320312	-47.018223
2164.086914	-48.710674
2174.853516	-47.468628
2185.620117	-45.781979
2196.386719	-46.984512
2207.153320	-46.597492
2217.919922	-43.500294
2228.686523	-46.020748
2239.453125	-46.336330
2250.219727	-49.788147
2260.986328	-49.960941
2271.752930	-47.023773
2282.519531	-45.971390
2293.286133	-43.154766
2304.052734	-45.525322
2314.819336	-45.769871
2325.585938	-46.172371
2336.352539	-46.156151
2347.119141	-43.627220
2357.885742	-44.997059
2368.652344	-44.696716
2379.418945	-47.491241
2390.185547	-45.925766
2400.952148	-41.541195
2411.718750	-41.140568
2422.485352	-39.707973
2433.251953	-43.016449
2444.018555	-44.842892
2454.785156	-47.978374
2465.551758	-48.934914
2476.318359	-47.734394
2487.084961	-45.050499
2497.851562	-45.492702
2508.618164	-46.981365
2519.384766	-47.343552
2530.151367	-45.568245
2540.917969	-47.925068
2551.684570	-48.406693
2562.451172	-49.176670
2573.217773	-50.489426
2583.984375	-50.590847
2594.750977	-51.321087
2605.517578	-51.280930
2616.284180	-52.298027
2627.050781	-52.526447
2637.817383	-51.985363
2648.583984	-50.494987
2659.350586	-49.522095
2670.117188	-48.784470
2680.883789	-49.500271
2691.650391	-49.192570
2702.416992	-49.655106
2713.183594	-48.778152
2723.950195	-49.777504
2734.716797	-50.512215
2745.483398	-50.870659
2756.250000	-46.897480
2767.016602	-44.202656
2777.783203	-48.910458
2788.549805	-48.872200
2799.316406	-44.814613
2810.083008	-47.622078
2820.849609	-49.010441
2831.616211	-45.434647
2842.382812	-44.945789
2853.149414	-45.227509
2863.916016	-47.043903
2874.682617	-46.957508
2885.449219	-47.126675
2896.215820	-46.535652
2906.982422	-47.345520
2917.749023	-49.072807
2928.515625	-50.501194
2939.282227	-51.520695
2950.048828	-51.119740
2960.815430	-49.503845
2971.582031	-47.033092
2982.348633	-42.181889
2993.115234	-43.805584
3003.881836	-42.927696
3014.648438	-46.344994
3025.415039	-47.948139
3036.181641	-50.856232
3046.948242	-39.222191
3057.714844	-35.393734
3068.481445	-38.317883
3079.248047	-39.636864
3090.014648	-48.372421
3100.781250	-50.179230
3111.547852	-48.074375
3122.314453	-44.719242
3133.081055	-43.444519
3143.847656	-40.465885
3154.614258	-41.904827
3165.380859	-41.041870
3176.147461	-44.339653
3186.914062	-44.772717
3197.680664	-43.069889
3208.447266	-44.842331
3219.213867	-47.004562
3229.980469	-50.930920
3240.747070	-52.842480
3251.513672	-50.535038
3262.280273	-50.313129
3273.046875	-47.666512
3283.813477	-47.820412
3294.580078	-46.393444
3305.346680	-49.064632
3316.113281	-49.015095
3326.879883	-46.852726
3337.646484	-48.040707
3348.413086	-46.791809
3359.179688	-45.070042
3369.946289	-44.569706
3380.712891	-44.945503
3391.479492	-46.148689
3402.246094	-45.310688
3413.012695	-49.137463
3423.779297	-50.212738
3434.545898	-51.045666
3445.312500	-46.391869
3456.079102	-41.592270
3466.845703	-39.376793
3477.612305	-37.689957
3488.378906	-35.481865
3499.145508	-36.648579
3509.912109	-36.487984
3520.678711	-41.289787
3531.445312	-45.242561
3542.211914	-50.580849
3552.978516	-51.391754
3563.745117	-48.896576
3574.511719	-47.337738
3585.278320	-44.813217
3596.044922	-45.625683
3606.811523	-46.045605
3617.578125	-49.326992
3628.344727	-46.199081
3639.111328	-42.575199
3649.877930	-47.430698
3660.644531	-49.786274
3671.411133	-49.670326
3682.177734	-48.355251
3692.944336	-44.815586
3703.710938	-44.515186
3714.477539	-43.822212
3725.244141	-45.103146
3736.010742	-46.859119
3746.777344	-47.427181
3757.543945	-50.861359
3768.310547	-52.335999
3779.077148	-52.246922
3789.843750	-50.847782
3800.610352	-46.960323
3811.376953	-48.523674
3822.143555	-47.880180
3832.910156	-49.730045
3843.676758	-50.461338
3854.443359	-51.241741
3865.209961	-51.713955
3875.976562	-50.743011
3886.743164	-52.857121
3897.509766	-51.932682
3908.276367	-51.363037
3919.042969	-53.291187
3929.809570	-53.833683
3940.576172	-53.602364
3951.342773	-54.439220
3962.109375	-54.629765
3972.875977	-54.428879
3983.642578	-54.800316
3994.409180	-54.740810
4005.175781	-55.059921
4015.942383	-55.164925
4026.708984	-55.497047
4037.475586	-55.446201
4048.242188	-55.445175
4059.008789	-55.567173
4069.775391	-55.511372
4080.541992	-55.392155
4091.308594	-55.479267
4102.075195	-55.444462
4112.841797	-55.490505
4123.608398	-55.606384
4134.375000	-55.541531
4145.141602	-55.659328
4155.908203	-55.774624
4166.674805	-55.711803
4177.441406	-55.632359
4188.208008	-55.609863
4198.974609	-55.529079
4209.741211	-55.752480
4220.507812	-55.871117
4231.274414	-55.690723
4242.041016	-55.715073
4252.807617	-55.855824
4263.574219	-55.747036
4274.340820	-55.812649
4285.107422	-55.812649
4295.874023	-55.732635
4306.640625	-55.821487
4317.407227	-55.762001
4328.173828	-55.795643
4338.940430	-55.921158
4349.707031	-55.820999
4360.473633	-55.829147
4371.240234	-55.848591
4382.006836	-55.913685
4392.773438	-56.141350
4403.540039	-56.037457
4414.306641	-55.776611
4425.073242	-55.904453
4435.839844	-56.055317
4446.606445	-56.059692
4457.373047	-56.095871
4468.139648	-56.050053
4478.906250	-56.046215
4489.672852	-56.081898
4500.439453	-55.995403
4511.206055	-56.225559
4521.972656	-56.171726
4532.739258	-55.954659
4543.505859	-55.957920
4554.272461	-56.009800
4565.039062	-55.999443
4575.805664	-56.103039
4586.572266	-56.011147
4597.338867	-56.169079
4608.105469	-56.206844
4618.872070	-56.167603
4629.638672	-56.270992
4640.405273	-56.394985
4651.171875	-56.491062
4661.938477	-56.449547
4672.705078	-56.338058
4683.471680	-56.333042
4694.238281	-56.215698
4705.004883	-56.206532
4715.771484	-56.053032
4726.538086	-56.114182
4737.304688	-56.246574
4748.071289	-56.334103
4758.837891	-56.293259
4769.604492	-56.411083
4780.371094	-56.475536
4791.137695	-56.297241
4801.904297	-56.235321
4812.670898	-56.421482
4823.437500	-56.435162
4834.204102	-56.392349
4844.970703	-56.346729
4855.737305	-56.317505
4866.503906	-56.456856
4877.270508	-56.569260
4888.037109	-56.449017
4898.803711	-56.506863
4909.570312	-56.547951
4920.336914	-56.531815
4931.103516	-56.591011
4941.870117	-56.426960
4952.636719	-56.585571
4963.403320	-56.730152
4974.169922	-56.484291
4984.936523	-56.388367
4995.703125	-56.496048
5006.469727	-56.700405
5017.236328	-56.767830
5028.002930	-56.644733
5038.769531	-56.591522
5049.536133	-56.591972
5060.302734	-56.636303
5071.069336	-56.622379
5081.835938	-56.630184
5092.602539	-56.628342
5103.369141	-56.666084
5114.135742	-56.723049
5124.902344	-56.843311
5135.668945	-56.811260
5146.435547	-56.861870
5157.202148	-56.963478
5167.968750	-56.741837
5178.735352	-56.706661
5189.501953	-56.909611
5200.268555	-56.891426
5211.035156	-56.909618
5221.801758	-56.885635
5232.568359	-56.902954
5243.334961	-56.808559
5254.101562	-56.712101
5264.868164	-56.747551
5275.634766	-56.815544
5286.401367	-56.885738
5297.167969	-56.955193
5307.934570	-56.917313
5318.701172	-56.908096
5329.467773	-56.952446
5340.234375	-57.035751
5351.000977	-57.100769
5361.767578	-57.032291
5372.534180	-56.958420
5383.300781	-56.961239
5394.067383	-56.910965
5404.833984	-57.035820
5415.600586	-56.993622
5426.367188	-56.965992
5437.133789	-56.842800
5447.900391	-56.922417
5458.666992	-56.911320
5469.433594	-57.083042
5480.200195	-56.979504
5490.966797	-56.976364
5501.733398	-57.108280
5512.500000	-57.131603
5523.266602	-57.062912
5534.033203	-56.992725
5544.799805	-57.119011
5555.566406	-57.208099
5566.333008	-57.309883
5577.099609	-57.202320
5587.866211	-57.160927
5598.632812	-57.024498
5609.399414	-56.944450
5620.166016	-57.097954
5630.932617	-57.061169
5641.699219	-57.212639
5652.465820	-57.239223
5663.232422	-57.263870
5673.999023	-57.259426
5684.765625	-57.051781
5695.532227	-57.112335
5706.298828	-57.245308
5717.065430	-57.236492
5727.832031	-57.205486
5738.598633	-57.295536
5749.365234	-57.353298
5760.131836	-57.353123
5770.898438	-57.327957
5781.665039	-57.296215
5792.431641	-57.280624
5803.198242	-57.359627
5813.964844	-57.387020
5824.731445	-57.337086
5835.498047	-57.269737
5846.264648	-57.412716
5857.031250	-57.563663
5867.797852	-57.498688
5878.564453	-57.548382
5889.331055	-57.490845
5900.097656	-57.439220
5910.864258	-57.537155
5921.630859	-57.451618
5932.397461	-57.357681
5943.164062	-57.357178
5953.930664	-57.460751
5964.697266	-57.425934
5975.463867	-57.535198
5986.230469	-57.408676
5996.997070	-57.499050
6007.763672	-57.601559
6018.530273	-57.685356
6029.296875	-57.627480
6040.063477	-57.578369
6050.830078	-57.609684
6061.596680	-57.668484
6072.363281	-57.548576
6083.129883	-57.598568
6093.896484	-57.711956
6104.663086	-57.678120
6115.429688	-57.641659
6126.196289	-57.632416
6136.962891	-57.511318
6147.729492	-57.584084
6158.496094	-57.758087
6169.262695	-57.661053
6180.029297	-57.545410
6190.795898	-57.659309
6201.562500	-57.662495
6212.329102	-57.663502
6223.095703	-57.680836
6233.862305	-57.730782
6244.628906	-57.677742
6255.395508	-57.612103
6266.162109	-57.632202
6276.928711	-57.750679
6287.695312	-57.725830
6298.461914	-57.728870
6309.228516	-57.842293
6319.995117	-57.751480
6330.761719	-57.920902
6341.528320	-57.959625
6352.294922	-57.820465
6363.061523	-57.823490
6373.828125	-57.896622
6384.594727	-57.869583
6395.361328	-57.770111
6406.127930	-57.772167
6416.894531	-57.712200
6427.661133	-57.837708
6438.427734	-57.889786
6449.194336	-57.923050
6459.960938	-57.906284
6470.727539	-57.948910
6481.494141	-58.037594
6492.260742	-57.978561
6503.027344	-57.973877
6513.793945	-57.878727
6524.560547	-57.982437
6535.327148	-57.916485
6546.093750	-57.810589
6556.860352	-57.825962
6567.626953	-57.918236
6578.393555	-58.142056
6589.160156	-58.160927
6599.926758	-58.085445
6610.693359	-58.057575
6621.459961	-57.976913
6632.226562	-57.949223
6642.993164	-58.170670
6653.759766	-58.040958
6664.526367	-58.026669
6675.292969	-58.190788
6686.059570	-58.155670
6696.826172	-58.059273
6707.592773	-58.061249
6718.359375	-58.088852
6729.125977	-58.127857
6739.892578	-58.156967
6750.659180	-58.099400
6761.425781	-58.149288
6772.192383	-58.056980
6782.958984	-58.106129
6793.725586	-58.164772
6804.492188	-58.228333
6815.258789	-58.219151
6826.025391	-58.091373
6836.791992	-58.047211
6847.558594	-58.217770
6858.325195	-58.240852
6869.091797	-58.184212
6879.858398	-58.158775
6890.625000	-58.285835
6901.391602	-58.194046
6912.158203	-58.161160
6922.924805	-58.118359
6933.691406	-58.148933
6944.458008	-58.282486
6955.224609	-58.072258
6965.991211	-58.083660
6976.757812	-58.120121
6987.524414	-58.250000
6998.291016	-58.379501
7009.057617	-58.371941
7019.824219	-58.334854
7030.590820	-58.288116
7041.357422	-58.262032
7052.124023	-58.306366
7062.890625	-58.264236
7073.657227	-58.367451
7084.423828	-58.468674
7095.190430	-58.517586
7105.957031	-58.411259
7116.723633	-58.277618
7127.490234	-58.318073
7138.256836	-58.468941
7149.023438	-58.391544
7159.790039	-58.395752
7170.556641	-58.370213
7181.323242	-58.352612
7192.089844	-58.296635
7202.856445	-58.375435
7213.623047	-58.482559
7224.389648	-58.552883
7235.156250	-58.454910
7245.922852	-58.493584
7256.689453	-58.483620
7267.456055	-58.462055
7278.222656	-58.539989
7288.989258	-58.535378
7299.755859	-58.569252
7310.522461	-58.435417
7321.289062	-58.334743
7332.055664	-58.277431
7342.822266	-58.547878
7353.588867	-58.562092
7364.355469	-58.504299
7375.122070	-58.424915
7385.888672	-58.466663
7396.655273	-58.469837
7407.421875	-58.593559
7418.188477	-58.640892
7428.955078	-58.593861
7439.721680	-58.465546
7450.488281	-58.651028
7461.254883	-58.660622
7472.021484	-58.645489
7482.788086	-58.640972
7493.554688	-58.750282
7504.321289	-58.656586
7515.087891	-58.601357
7525.854492	-58.619595
7536.621094	-58.694584
7547.387695	-58.745689
7558.154297	-58.745159
7568.920898	-58.592575
7579.687500	-58.825443
7590.454102	-58.731239
7601.220703	-58.633705
7611.987305	-58.765648
7622.753906	-58.756599
7633.520508	-58.678967
7644.287109	-58.672585
7655.053711	-58.719807
7665.820312	-58.824131
7676.586914	-58.711861
7687.353516	-58.687603
7698.120117	-58.796600
7708.886719	-58.816681
7719.653320	-58.670063
7730.419922	-58.682388
7741.186523	-58.721573
7751.953125	-58.643867
7762.719727	-58.672615
7773.486328	-58.772930
7784.252930	-58.796474
7795.019531	-58.804024
7805.786133	-58.769180
7816.552734	-58.771252
7827.319336	-58.885258
7838.085938	-58.918308
7848.852539	-59.050636
7859.619141	-58.885147
7870.385742	-58.747845
7881.152344	-58.899384
7891.918945	-58.797832
7902.685547	-58.723927
7913.452148	-58.779846
7924.218750	-58.906418
7934.985352	-58.897243
7945.751953	-58.891006
7956.518555	-59.011120
7967.285156	-59.027855
7978.051758	-58.964775
7988.818359	-58.874634
7999.584961	-58.948311
8010.351562	-58.867382
8021.118164	-58.903896
8031.884766	-58.868729
8042.651367	-58.999187
8053.417969	-59.081638
8064.184570	-58.992332
8074.951172	-58.960926
8085.717773	-58.927624
8096.484375	-58.931061
8107.250977	-58.862675
8118.017578	-58.896553
8128.784180	-58.991276
8139.550781	-59.107872
8150.317383	-59.222980
8161.083984	-59.141254
8171.850586	-58.981277
8182.617188	-59.045597
8193.383789	-59.048332
8204.150391	-59.013359
8214.916992	-59.005753
8225.683594	-58.932224
8236.450195	-59.114990
8247.216797	-59.279324
8257.983398	-59.178646
8268.750000	-59.267159
8279.516602	-59.287651
8290.283203	-59.149239
8301.049805	-59.262653
8311.816406	-59.205559
8322.583008	-59.113037
8333.349609	-59.080555
8344.116211	-59.238369
8354.882812	-59.187820
8365.649414	-59.218876
8376.416016	-59.110847
8387.182617	-59.101902
8397.949219	-59.095768
8408.715820	-59.195393
8419.482422	-59.363647
8430.249023	-59.253098
8441.015625	-59.237926
8451.782227	-59.255138
8462.548828	-59.281017
8473.315430	-59.295654
8484.082031	-59.269161
8494.848633	-59.046833
8505.615234	-59.085957
8516.381836	-59.230560
8527.148438	-59.350502
8537.915039	-59.333218
8548.681641	-59.260876
8559.448242	-59.183041
8570.214844	-59.255577
8580.981445	-59.222202
8591.748047	-59.277527
8602.514648	-59.269150
8613.281250	-59.304401
8624.047852	-59.137604
8634.814453	-59.296040
8645.581055	-59.341381
8656.347656	-59.362991
8667.114258	-59.466888
8677.880859	-59.418903
8688.647461	-59.340374
8699.414062	-59.301491
8710.180664	-59.348602
8720.947266	-59.314777
8731.713867	-59.319096
8742.480469	-59.218140
8753.247070	-59.253826
8764.013672	-59.335758
8774.780273	-59.334213
8785.546875	-59.508186
8796.313477	-59.528423
8807.080078	-59.481068
8817.846680	-59.434563
8828.613281	-59.407448
8839.379883	-59.492748
8850.146484	-59.470299
8860.913086	-59.243134
8871.679688	-59.306011
8882.446289	-59.320145
8893.212891	-59.258984
8903.979492	-59.380733
8914.746094	-59.331753
8925.512695	-59.272484
8936.279297	-59.382759
8947.045898	-59.498363
8957.812500	-59.502438
8968.579102	-59.503296
8979.345703	-59.487289
8990.112305	-59.434635
9000.878906	-59.432713
9011.645508	-59.492840
9022.412109	-59.421673
9033.178711	-59.650841
9043.945312	-59.719666
9054.711914	-59.777676
9065.478516	-59.630928
9076.245117	-59.575588
9087.011719	-59.687290
9097.778320	-59.639397
9108.544922	-59.460480
9119.311523	-59.531635
9130.078125	-59.607155
9140.844727	-59.532398
9151.611328	-59.512768
9162.377930	-59.512447
9173.144531	-59.531284
9183.911133	-59.561310
9194.677734	-59.519699
9205.444336	-59.609470
9216.210938	-59.704750
9226.977539	-59.709057
9237.744141	-59.671066
9248.510742	-59.639511
9259.277344	-59.598190
9270.043945	-59.639633
9280.810547	-59.707462
9291.577148	-59.687519
9302.343750	-59.676022
9313.110352	-59.621349
9323.876953	-59.635502
9334.643555	-59.611454
9345.410156	-59.605816
9356.176758	-59.590862
9366.943359	-59.713024
9377.709961	-59.707542
9388.476562	-59.660198
